-0.00076027 -0.00001436 -0.00008167
0.00028190 0.00005507 0.00013771
0.00047190 -0.00039696 0.00005707
0.00013471 0.00025109 0.00008510
0.00016292 0.00025343 -0.00019497
-0.00001257 -0.00002396 -0.00009388
-0.00007149 0.00000579 0.00015680
-0.00004454 -0.00001609 0.00000232
-0.00001942 -0.00009490 0.00003731
0.00000547 -0.00008970 -0.00000370
0.00051827 -0.00201852 0.00028621
0.00036992 0.00089385 0.00006260
-0.00064175 0.00049862 -0.00014102
0.00013117 0.00028507 0.00008022
0.00019498 0.00020159 -0.00020335
-0.00009088 0.00005241 -0.00014897
-0.00018465 0.00015375 0.00012336
-0.00005045 -0.00003271 0.00001160
-0.00000602 -0.00009975 0.00002311
0.00000751 -0.00008803 -0.00001500
0.00013197 -0.00003096 -0.00057981
0.00005142 -0.00010452 0.00046991
0.00006350 -0.00012654 0.00027446
0.00010602 0.00025403 0.00003694
0.00018750 -0.00003512 -0.00013774
-0.00003140 -0.00006076 -0.00013443
-0.00018791 0.00021079 0.00006060
-0.00008108 -0.00002619 0.00004437
-0.00001030 -0.00008671 0.00001342
0.00001750 -0.00008415 -0.00002573
0.00038951 -0.00005662 -0.00005309
-0.00238479 -0.00083143 0.00022107
0.00116546 0.00025671 -0.00001029
0.00047911 0.00034289 0.00043303
0.00071035 0.00014217 -0.00044092
-0.00003832 0.00009577 -0.00015019
-0.00010669 0.00014835 0.00014896
-0.00005789 -0.00002107 0.00003557
0.00007507 -0.00006200 -0.00012945
-0.00001645 -0.00009111 0.00004158
0.00028579 0.00060154 -0.00008980
-0.00070896 -0.00183527 -0.00028668
0.00044632 0.00005322 0.00003719
0.00033700 0.00063143 0.00061508
0.00022070 0.00045400 -0.00017957
-0.00009336 0.00010420 -0.00014998
-0.00020124 0.00010706 0.00013208
0.00002299 0.00000682 -0.00010839
-0.00002438 -0.00009032 0.00005488
-0.00004390 -0.00008655 0.00007266
0.00019978 -0.00041297 0.00031955
0.00018511 -0.00045132 -0.00257644
-0.00012669 0.00003300 0.00022206
0.00044906 0.00066024 0.00121705
-0.00011830 0.00012317 0.00074080
0.00000586 0.00016692 -0.00015359
-0.00022245 0.00001963 0.00013715
-0.00006604 -0.00001824 0.00004079
-0.00000519 -0.00008927 0.00000714
-0.00006009 -0.00010587 0.00010947
0.00077795 -0.00086646 0.00016191
0.00134997 0.00052598 0.00012390
-0.00308664 0.00000824 -0.00003368
0.00017269 0.00015054 0.00009079
0.00025139 0.00011174 -0.00015198
0.00037200 0.00018901 0.00035384
0.00048914 -0.00001366 -0.00047786
-0.00006389 -0.00001847 0.00002357
-0.00001231 -0.00008131 0.00001275
0.00000032 -0.00008216 -0.00000606
-0.00013814 0.00022572 -0.00008042
0.00040363 0.00008454 0.00022980
-0.00004142 -0.00119283 -0.00047923
0.00020644 0.00017110 0.00009932
0.00019370 0.00015563 -0.00017125
0.00000231 0.00029567 0.00008994
-0.00031157 0.00036155 0.00036417
-0.00005454 -0.00001603 0.00001889
-0.00002198 -0.00009296 0.00002861
0.00000306 -0.00008738 -0.00000412
0.00032423 -0.00040973 0.00033035
0.00015133 0.00007744 0.00042821
-0.00009181 -0.00047181 -0.00305622
0.00024453 0.00012232 0.00011036
0.00003347 0.00015643 -0.00017736
0.00039551 0.00030579 0.00115917
-0.00073706 0.00034705 0.00122624
-0.00005288 -0.00002217 0.00001538
-0.00002706 -0.00009885 0.00004529
0.00000259 -0.00008329 -0.00001529
0.00022740 -0.00031160 -0.00001333
0.00046205 0.00020298 0.00048310
-0.00004562 0.00004069 0.00006964
-0.00024402 -0.00010079 -0.00022963
0.00014434 0.00008889 -0.00022525
-0.00008266 0.00008504 -0.00013972
-0.00016000 0.00011242 0.00012910
-0.00005996 -0.00001892 0.00002338
-0.00001519 -0.00009349 0.00002636
0.00001430 -0.00008082 -0.00002689
0.00031437 -0.00018664 0.00010501
0.00029961 0.00046607 0.00066850
-0.00009765 -0.00002475 -0.00008258
-0.00013126 -0.00041086 -0.00044631
0.00016321 0.00009880 -0.00017640
-0.00009503 0.00006245 -0.00013371
-0.00015316 0.00011954 0.00013162
-0.00006026 -0.00002081 0.00002634
-0.00001153 -0.00009134 0.00002317
0.00001337 -0.00008699 -0.00001868
0.00020581 -0.00033481 -0.00005449
0.00044944 0.00051530 0.00128697
-0.00009984 -0.00003869 -0.00003684
-0.00020432 -0.00039112 -0.00105527
0.00021592 0.00018711 -0.00006994
-0.00008995 0.00006898 -0.00013507
-0.00015745 0.00012073 0.00012568
-0.00005748 -0.00002227 0.00001954
-0.00001402 -0.00009136 0.00001859
-0.00000637 -0.00008956 0.00000532
0.00021396 -0.00028962 0.00002640
0.00065437 0.00004414 -0.00012735
-0.00000849 -0.00001386 -0.00018358
0.00010258 0.00015116 0.00014626
-0.00243206 0.00011888 -0.00033078
-0.00009668 0.00006128 -0.00013469
-0.00014892 0.00013625 0.00012734
0.00014841 -0.00007303 0.00003200
0.00136392 -0.00040376 0.00018565
0.00042167 0.00019496 0.00035796
0.00034833 -0.00023904 -0.00015249
0.00012983 0.00031916 0.00015780
-0.00010477 -0.00000848 -0.00001673
0.00009088 0.00013058 0.00016101
0.00016823 -0.00258012 -0.00027180
-0.00008387 0.00006904 -0.00013602
-0.00016007 0.00011026 0.00013027
-0.00011271 0.00136754 -0.00028498
-0.00032459 0.00020000 -0.00001769
0.00029406 0.00051838 0.00051370
0.00018488 -0.00035926 0.00002963
-0.00016719 -0.00002656 0.00104826
-0.00008362 -0.00005020 -0.00006559
0.00006186 0.00014033 0.00018847
-0.00001347 0.00001618 -0.00262293
-0.00008356 0.00006991 -0.00013714
-0.00014965 0.00012680 0.00012957
-0.00004616 -0.00032858 0.00031925
0.00015453 -0.00012916 0.00026150
0.00038796 0.00045353 0.00090905
0.00029845 -0.00031516 0.00006737
0.00016496 -0.00001043 0.00025487
0.00037242 0.00005529 0.00043130
0.00013578 0.00015317 0.00010051
0.00016355 0.00013262 -0.00015205
-0.00063854 -0.00000246 -0.00068689
-0.00020222 0.00010992 0.00005626
-0.00005698 -0.00001937 0.00001855
-0.00001374 -0.00009350 0.00002160
0.00001013 -0.00008557 -0.00001468
0.00012798 -0.00033151 -0.00012100
0.00013982 0.00002771 0.00025674
0.00003013 0.00018980 0.00018896
0.00014411 0.00015125 0.00010004
0.00016214 0.00012615 -0.00015796
-0.00016257 -0.00016324 -0.00034794
-0.00013678 0.00011311 0.00014777
-0.00005771 -0.00001950 0.00002109
-0.00001360 -0.00009259 0.00002232
0.00000825 -0.00008465 -0.00001359
0.00026211 -0.00032865 0.00000946
0.00009827 -0.00002225 0.00014064
0.00039093 0.00018640 0.00123129
0.00012355 0.00015924 0.00010017
0.00017031 0.00012526 -0.00016087
-0.00063873 -0.00014102 -0.00144831
-0.00010574 0.00013998 0.00020114
-0.00005775 -0.00001999 0.00002027
-0.00001172 -0.00009192 0.00002200
0.00001059 -0.00008249 -0.00001185
0.00030698 -0.00034148 -0.00002118
0.00016400 -0.00005064 0.00009443
0.00055423 -0.00019004 -0.00062834
0.00012601 0.00016254 0.00010056
0.00017881 0.00012397 -0.00015063
-0.00013464 0.00009010 -0.00008313
-0.00088578 0.00032445 0.00075797
-0.00005819 -0.00001904 0.00001948
-0.00001084 -0.00009111 0.00001839
0.00000920 -0.00008425 -0.00001103
0.00010954 -0.00027827 0.00010220
0.00014407 -0.00001766 0.00006121
-0.00021943 0.00020468 0.00018409
0.00012325 0.00016007 0.00010355
0.00018885 0.00011909 -0.00014934
-0.00009775 0.00006481 -0.00011238
0.00005008 -0.00013728 -0.00012058
-0.00005863 -0.00001997 0.00002126
-0.00000680 -0.00008980 0.00001683
0.00000866 -0.00008336 -0.00000996
0.00024989 -0.00031957 -0.00005880
0.00013420 -0.00000348 0.00016797
-0.00069799 0.00020005 0.00106014
0.00012911 0.00016133 0.00009768
0.00016913 0.00012830 -0.00015736
-0.00016241 0.00008885 -0.00006173
0.00048062 -0.00013394 -0.00098863
-0.00005801 -0.00001956 0.00002069
-0.00001241 -0.00009302 0.00002182
0.00000954 -0.00008454 -0.00001254
0.00023570 -0.00030585 -0.00001304
0.00011468 0.00007491 0.00015223
-0.00009504 -0.00003311 -0.00004061
0.00012749 0.00015689 0.00010196
0.00037852 0.00007079 -0.00014557
-0.00008801 0.00007065 -0.00013357
-0.00015675 0.00011799 0.00012943
-0.00028269 0.00003556 0.00001627
-0.00001025 -0.00023569 0.00006047
0.00001190 -0.00002770 -0.00003094
0.00022609 -0.00032623 0.00000383
0.00011339 0.00002057 0.00016203
-0.00008767 -0.00003268 -0.00004800
0.00013043 0.00015824 0.00009908
0.00011599 0.00153748 -0.00047042
-0.00008850 0.00007077 -0.00013391
-0.00015570 0.00011856 0.00012977
-0.00000326 -0.00154798 0.00037334
-0.00000932 -0.00005667 0.00001696
0.00000029 -0.00001375 -0.00003607
0.00020418 -0.00032222 0.00003395
0.00012972 -0.00013481 0.00018048
-0.00008596 -0.00003805 -0.00005076
0.00013240 0.00016507 0.00010058
0.00018319 -0.00018217 0.00014273
-0.00009089 0.00007104 -0.00013396
-0.00015750 0.00011946 0.00012971
-0.00006188 0.00032961 -0.00028684
-0.00001083 -0.00010914 0.00003329
-0.00000056 0.00002558 -0.00004454
0.00021477 -0.00030751 0.00001168
0.00020186 -0.00001855 0.00016703
-0.00008945 -0.00004654 -0.00006081
0.00012618 0.00015955 0.00009937
0.00156938 -0.00018922 0.00000923
-0.00009084 0.00006870 -0.00013359
-0.00015546 0.00012376 0.00012895
-0.00005643 -0.00001722 0.00002149
-0.00153129 0.00025247 -0.00013871
0.00005884 -0.00010088 -0.00000773
0.00021919 -0.00032136 0.00001518
0.00014434 -0.00000457 0.00016285
-0.00007856 -0.00003767 -0.00005273
0.00012780 0.00015965 0.00010193
-0.00014471 0.00042135 -0.00019491
-0.00009069 0.00006961 -0.00013389
-0.00015582 0.00012066 0.00012825
-0.00020178 0.00001524 0.00000320
0.00032916 -0.00038813 0.00007041
0.00009275 -0.00010374 -0.00000369
0.00023709 -0.00031280 0.00000100
-0.00003749 0.00002630 0.00014492
-0.00009878 -0.00003040 -0.00002289
0.00013334 0.00015984 0.00009758
0.00033480 0.00008723 0.00008069
-0.00008990 0.00007022 -0.00013428
-0.00016064 0.00011300 0.00012878
-0.00001995 -0.00002543 0.00003120
-0.00017049 -0.00004421 -0.00023198
0.00011387 -0.00011931 0.00000363
0.00021913 -0.00031456 0.00001891
0.00008948 -0.00005855 0.00009170
-0.00009744 -0.00004211 -0.00005180
0.00013509 0.00016387 0.00008646
0.00058603 0.00041080 0.00021781
-0.00008753 0.00006998 -0.00013184
-0.00015599 0.00011866 0.00013035
-0.00005468 -0.00002820 0.00001122
0.00003812 -0.00000773 0.00012740
-0.00043116 -0.00038775 -0.00040351
0.00021626 -0.00031781 0.00000957
0.00010712 -0.00000889 0.00013814
-0.00008760 -0.00004022 -0.00004534
0.00013228 0.00015582 0.00009555
0.00044774 0.00072898 0.00037241
-0.00009093 0.00006939 -0.00013263
-0.00015714 0.00011894 0.00012857
-0.00000215 0.00004969 0.00012955
-0.00002907 -0.00011184 -0.00001308
-0.00029465 -0.00071902 -0.00058606
0.00022921 -0.00031779 -0.00000498
0.00016688 0.00007704 0.00027974
-0.00008447 -0.00003000 -0.00005034
0.00011324 0.00015115 0.00011738
0.00053623 0.00064464 0.00075437
-0.00009304 0.00006746 -0.00013498
-0.00015692 0.00011933 0.00012757
-0.00007818 -0.00004514 -0.00001332
-0.00000894 -0.00008485 0.00003683
-0.00038213 -0.00065748 -0.00102368
0.00119731 -0.00060734 0.00009765
-0.00005245 -0.00006723 0.00018293
-0.00064462 0.00031718 -0.00014645
0.00012450 0.00006732 0.00011779
0.00017969 0.00000156 -0.00011992
-0.00016502 0.00016437 -0.00017320
-0.00024101 0.00023086 0.00010204
-0.00007135 -0.00002371 0.00003862
-0.00000434 -0.00008872 0.00000769
0.00001184 -0.00007761 -0.00001757
-0.00007469 0.00141553 -0.00027341
-0.00014446 -0.00092116 0.00026147
0.00046947 -0.00057559 0.00005111
0.00012741 0.00003227 0.00012268
0.00014733 0.00005339 -0.00011143
-0.00008728 0.00008867 -0.00011857
-0.00012832 0.00008352 0.00013559
-0.00006549 -0.00000705 0.00002929
-0.00001783 -0.00008387 0.00002188
0.00000980 -0.00007925 -0.00000625
0.00031125 -0.00059048 0.00059222
0.00017806 0.00009221 -0.00014934
-0.00024183 0.00005320 -0.00036611
0.00015286 0.00006453 0.00016592
0.00015483 0.00028973 -0.00017713
-0.00014629 0.00020137 -0.00013315
-0.00012519 0.00002671 0.00019823
-0.00003491 -0.00001362 -0.00000344
-0.00001350 -0.00009691 0.00003157
-0.00000019 -0.00008318 0.00000443
0.00005516 -0.00057097 0.00007355
0.00258813 0.00081440 0.00009543
-0.00132430 -0.00032235 -0.00008152
-0.00021772 -0.00002533 -0.00023033
-0.00036855 0.00011151 0.00012996
-0.00013939 0.00004509 -0.00011726
-0.00020588 0.00008924 0.00010996
-0.00005814 -0.00001869 0.00000545
-0.00009943 -0.00012158 0.00017490
0.00003380 -0.00007608 -0.00006302
0.00016347 -0.00121349 0.00010696
0.00093685 0.00180899 0.00061659
-0.00062411 -0.00012710 -0.00012881
-0.00008073 -0.00031311 -0.00041780
0.00012142 -0.00019781 -0.00013619
-0.00008480 0.00003669 -0.00011762
-0.00011210 0.00013029 0.00012681
-0.00013895 -0.00004677 0.00014945
0.00000052 -0.00009338 -0.00000976
0.00006130 -0.00008083 -0.00009380
0.00024499 -0.00021413 -0.00029971
0.00005948 0.00045201 0.00289841
-0.00005387 -0.00010636 -0.00031334
-0.00019650 -0.00035175 -0.00102547
0.00045331 0.00012941 -0.00104559
-0.00018360 -0.00002606 -0.00011386
-0.00009036 0.00021769 0.00012179
-0.00004999 -0.00002156 0.00000034
-0.00001861 -0.00009433 0.00003782
0.00007729 -0.00006124 -0.00012999
-0.00033857 0.00024476 -0.00014342
-0.00113979 -0.00054448 0.00019673
0.00293579 -0.00007699 -0.00005268
0.00008616 0.00016766 0.00011217
0.00009086 0.00014315 -0.00016288
-0.00055040 -0.00004794 -0.00061726
-0.00079964 0.00024824 0.00072916
-0.00005202 -0.00002127 0.00001730
-0.00001154 -0.00010233 0.00003220
0.00001704 -0.00008512 -0.00001528
0.00057600 -0.00084851 0.00009934
-0.00017539 -0.00009577 0.00009044
-0.00012669 0.00111088 0.00039097
0.00005247 0.00014753 0.00010349
0.00014881 0.00009953 -0.00014380
-0.00018170 -0.00015574 -0.00035922
-0.00000231 -0.00012248 -0.00010484
-0.00006135 -0.00002368 0.00002200
-0.00000186 -0.00009062 0.00001642
0.00001427 -0.00007992 -0.00001714
0.00012071 -0.00021762 -0.00031023
0.00008010 -0.00008855 -0.00010719
-0.00011080 0.00039844 0.00295937
0.00001424 0.00019592 0.00009257
0.00030875 0.00009849 -0.00013752
-0.00056193 -0.00016136 -0.00141050
0.00043504 -0.00011363 -0.00097639
-0.00006302 -0.00001755 0.00002552
0.00000319 -0.00008476 -0.00000031
0.00001472 -0.00008400 -0.00000597
0.00021720 -0.00031536 0.00003351
-0.00023478 -0.00021474 -0.00016243
-0.00013215 -0.00011328 -0.00016067
0.00050301 0.00041861 0.00043212
0.00019817 0.00016599 -0.00008975
-0.00009530 0.00005579 -0.00012783
-0.00015305 0.00012487 0.00012984
-0.00005598 -0.00002081 0.00001753
-0.00000859 -0.00009013 0.00001865
0.00000306 -0.00008645 0.00000563
0.00013060 -0.00043945 -0.00008449
-0.00006862 -0.00047848 -0.00034345
-0.00008053 -0.00004833 -0.00000898
0.00038815 0.00073025 0.00064477
0.00017918 0.00015613 -0.00013875
-0.00008299 0.00007833 -0.00013384
-0.00015989 0.00011778 0.00012733
-0.00005567 -0.00001891 0.00001456
-0.00001226 -0.00009228 0.00002184
0.00000398 -0.00008026 -0.00000261
0.00023849 -0.00029235 0.00007449
-0.00021397 -0.00051761 -0.00095556
-0.00007846 -0.00003452 -0.00005463
0.00045747 0.00070001 0.00124721
0.00012653 0.00006806 -0.00024462
-0.00008803 0.00007182 -0.00013247
-0.00015561 0.00011659 0.00013326
-0.00005844 -0.00001747 0.00002134
-0.00000979 -0.00009225 0.00002640
0.00002367 -0.00007771 -0.00002655
0.00023073 -0.00033727 -0.00000627
-0.00042452 -0.00005515 0.00044423
-0.00016902 -0.00005876 0.00009171
0.00015641 0.00016713 0.00005688
0.00280207 0.00011915 0.00001838
-0.00008129 0.00007950 -0.00013288
-0.00016409 0.00010107 0.00013157
-0.00026551 0.00003643 0.00000794
-0.00141063 0.00022748 -0.00014397
-0.00040630 -0.00036078 -0.00037807
0.00009646 -0.00038723 0.00017236
0.00009918 -0.00033268 0.00016402
-0.00007336 -0.00006459 -0.00007466
0.00016799 0.00018791 0.00004196
0.00016761 0.00285586 -0.00005291
-0.00009414 0.00007174 -0.00013154
-0.00015300 0.00012707 0.00012866
-0.00000210 -0.00143050 0.00033370
0.00030171 -0.00038589 0.00006326
-0.00027385 -0.00068525 -0.00052918
0.00025993 -0.00026734 -0.00000977
0.00040373 0.00001685 -0.00073815
-0.00009452 -0.00002274 -0.00002575
0.00019736 0.00017797 0.00001378
0.00033261 0.00023894 0.00231694
-0.00009447 0.00007084 -0.00013038
-0.00016341 0.00011051 0.00012933
-0.00006923 0.00028985 -0.00027974
-0.00017567 -0.00005464 -0.00021574
-0.00036405 -0.00061177 -0.00092219
0.00014600 -0.00031157 -0.00004752
0.00006388 -0.00000187 0.00006541
-0.00054999 -0.00012872 -0.00052607
0.00012315 0.00016521 0.00010243
0.00017895 0.00012235 -0.00016296
0.00046018 0.00014374 0.00042312
-0.00011079 0.00012741 0.00020291
-0.00005895 -0.00002037 0.00002236
-0.00001005 -0.00009011 0.00002340
0.00000719 -0.00008171 -0.00000659
0.00031631 -0.00029526 0.00014112
0.00008915 -0.00003979 0.00006376
-0.00020682 -0.00026160 -0.00027816
0.00011486 0.00016713 0.00010288
0.00018036 0.00012884 -0.00015702
-0.00001637 0.00030282 0.00007846
-0.00017629 0.00012427 0.00011107
-0.00005821 -0.00002024 0.00001981
-0.00001020 -0.00009102 0.00002267
0.00000908 -0.00008263 -0.00000770
0.00018280 -0.00029825 0.00001073
0.00013120 0.00001012 0.00018038
-0.00058024 -0.00026279 -0.00133838
0.00013544 0.00015911 0.00010277
0.00017213 0.00012974 -0.00015412
0.00047134 0.00028541 0.00119711
-0.00020736 0.00009724 0.00005746
-0.00005817 -0.00001974 0.00002064
-0.00001210 -0.00009170 0.00002300
0.00000674 -0.00008480 -0.00000944
0.00013746 -0.00028516 0.00004153
0.00006480 0.00003850 0.00022651
-0.00073455 0.00011923 0.00054372
0.00013296 0.00015581 0.00010240
0.00016365 0.00013103 -0.00016438
-0.00004321 0.00005059 -0.00018475
0.00057523 -0.00008938 -0.00050599
-0.00005774 -0.00002070 0.00002142
-0.00001298 -0.00009251 0.00002662
0.00000812 -0.00008303 -0.00001025
0.00033460 -0.00034849 -0.00008188
0.00008496 0.00000558 0.00025926
0.00004246 -0.00027936 -0.00027657
0.00013571 0.00015830 0.00009940
0.00015367 0.00013590 -0.00016563
-0.00008026 0.00007596 -0.00015511
-0.00036374 0.00037483 0.00038051
-0.00005730 -0.00001977 0.00001965
-0.00001701 -0.00009381 0.00002816
0.00000867 -0.00008392 -0.00001132
0.00019512 -0.00030735 0.00007883
0.00009520 -0.00000876 0.00015260
0.00050905 -0.00026897 -0.00114250
0.00012986 0.00015704 0.00010527
0.00017336 0.00012669 -0.00015761
-0.00001576 0.00005214 -0.00020540
-0.00078336 0.00036717 0.00123761
-0.00005792 -0.00002017 0.00002021
-0.00001139 -0.00009060 0.00002318
0.00000778 -0.00008275 -0.00000875
0.00020890 -0.00032089 0.00003314
0.00011442 -0.00008702 0.00016829
-0.00008317 -0.00003992 -0.00005075
0.00013147 0.00016147 0.00010100
-0.00003539 0.00018140 -0.00016864
-0.00008998 0.00007015 -0.00013398
-0.00015630 0.00011932 0.00012951
0.00016549 -0.00007278 0.00002399
-0.00001367 0.00005228 -0.00001553
0.00000532 -0.00013957 0.00000970
0.00021848 -0.00030057 0.00001639
0.00011576 -0.00003303 0.00015871
-0.00009048 -0.00004033 -0.00004338
0.00012854 0.00016014 0.00010388
0.00022545 -0.00126056 0.00014803
-0.00008949 0.00007003 -0.00013365
-0.00015736 0.00011876 0.00012917
-0.00011161 0.00148542 -0.00032525
-0.00001445 -0.00012709 0.00002808
0.00001704 -0.00015334 0.00001477
0.00024048 -0.00030453 -0.00001386
0.00009960 0.00012303 0.00014003
-0.00009222 -0.00003494 -0.00004062
0.00012655 0.00015329 0.00010238
0.00015912 0.00043645 -0.00045624
-0.00008709 0.00006975 -0.00013359
-0.00015556 0.00011785 0.00012923
-0.00005415 -0.00036893 0.00032622
-0.00001296 -0.00007448 0.00001173
0.00001797 -0.00019297 0.00002327
0.00022985 -0.00031933 0.00000848
0.00002735 0.00000636 0.00015360
-0.00008869 -0.00002641 -0.00003057
0.00013277 0.00015882 0.00010360
-0.00120518 0.00043712 -0.00032099
-0.00008715 0.00007209 -0.00013397
-0.00015760 0.00011355 0.00012998
-0.00005984 -0.00002235 0.00001935
0.00148512 -0.00042914 0.00018050
-0.00004152 -0.00006641 -0.00001355
0.00022537 -0.00030547 0.00000499
0.00008476 -0.00000762 0.00015778
-0.00009958 -0.00003533 -0.00003865
0.00013117 0.00015871 0.00010103
0.00048647 -0.00016453 -0.00012039
-0.00008730 0.00007118 -0.00013367
-0.00015722 0.00011666 0.00013068
0.00008620 -0.00005519 0.00003786
-0.00035239 0.00020390 -0.00002535
-0.00007558 -0.00006362 -0.00001753
0.00020747 -0.00031403 0.00001914
0.00026685 -0.00003834 0.00017560
-0.00007933 -0.00004259 -0.00006849
0.00012564 0.00015852 0.00010539
0.00000521 0.00016818 -0.00039655
-0.00008809 0.00007057 -0.00013327
-0.00015241 0.00012432 0.00013014
-0.00009595 -0.00001432 0.00000965
0.00014869 -0.00013997 0.00027938
-0.00009632 -0.00004790 -0.00002492
0.00022550 -0.00031228 0.00000121
0.00013973 0.00004666 0.00022908
-0.00008072 -0.00003089 -0.00003966
0.00012385 0.00015448 0.00011650
-0.00024195 -0.00015709 -0.00053418
-0.00009047 0.00007080 -0.00013570
-0.00015707 0.00011867 0.00012858
-0.00006126 -0.00001145 0.00002975
-0.00006224 -0.00017606 -0.00008279
0.00044581 0.00022164 0.00038388
0.00022835 -0.00030902 0.00001054
0.00012214 -0.00000317 0.00018277
-0.00009055 -0.00003277 -0.00004606
0.00012666 0.00016255 0.00010741
-0.00010800 -0.00047465 -0.00069287
-0.00008707 0.00007140 -0.00013493
-0.00015592 0.00011838 0.00013036
-0.00011402 -0.00008989 -0.00008900
0.00000540 -0.00007172 0.00005833
0.00031475 0.00055137 0.00057011
0.00021534 -0.00030905 0.00002518
0.00006228 -0.00008941 0.00004028
-0.00009369 -0.00004302 -0.00004102
0.00014575 0.00016721 0.00008551
-0.00019984 -0.00039825 -0.00107689
-0.00008495 0.00007334 -0.00013257
-0.00015614 0.00011797 0.00013136
-0.00003754 0.00000570 0.00005449
-0.00001476 -0.00009869 0.00000828
0.00040529 0.00049872 0.00101010
